# Energy[keV]      E_Flux_E[keV_cm-2_s^-1]  I
# Phase-averaged flux from NuStar observations of Her X-1
# From Figure 1 2016ApJ...831..194W
# First Row is an extrapolation to 1 keV
# Final column I is in units of Photons cm-2 s-1 keV-1
0.9803826043859143 0.17581156393202946	0.1829179156  
4.1633822874790996 0.6971399917102264   0.04021864331  
4.280099414720974 0.7182180926318738	0.03920564725  
4.414278524710193 0.7441194811066658	0.03818767435  
4.546680676327467 0.7716269446296791	0.03732660379  
4.665571627438381 0.7848360387260502	0.0360553084   
4.826267922287767 0.8107360680472688	0.03480620226  
5.041352243074332 0.8591184345034305	0.0338032885   
5.195582049495145 0.8860385180608713	0.03282344697  
5.34668666621291 0.908039251975431	0.03176399762  
5.503820967807851 0.9375295406655638	0.03094969432  
5.665575321701101 0.9685172506100269	0.03017305783  
5.832085625612193 1.0010869990129998	0.02943228892  
6.003463994075331 1.0278542803480595	0.0285185689   
6.17991138884592 1.06419739839504	0.02786491335  
6.361522091169063 1.0957014236168292	0.02707510482  
6.5484838222379675 1.1319171122197402	0.02639569538  
6.74092586084954 1.165425881651169	0.02564753064  
6.939035595601983 1.2032752869737655	0.02499002937  
7.142967596881883 1.2423539231773895	0.02434938383  
7.352882506009329 1.27984515851178	0.02367239382  
7.568971706176452 1.319938347121672	0.02303986249  
7.791411414785766 1.3612875187403033	0.02242423252  
8.036829923316454 1.4067069525131755	0.0217788066   
8.262592661089544 1.4419602975111083	0.02112129863  
8.50511194058589 1.491218470715917	0.02061489876  
8.766439442805854 1.5469528444312362	0.02012938939  
9.015073999521077 1.586948367650671	0.01952649098  
9.242842683840571 1.6352814246163183	0.01914173859  
9.564754101404413 1.7073758290391006	0.01866300233  
9.803826043859143 1.7581156393202946	0.01829179156  
15.001407397913416 2.69559306876465	0.01197816579  
15.45050989078934 2.81024011337741	0.01177220445  
16.030577322674326 2.884918437520201	0.01122626301  
16.734907995818205 2.9755683317146384	0.01062486131  
17.17126316152828 3.029254357797385	0.01027380345  
17.670543956938584 3.0727206486487844	0.00984063767  
18.228099936669885 3.146143493969594	0.009468817034 
18.729623668619258 3.194220903273553	0.009105563868 
19.36319704156335 3.2453740121981505	0.008655867989 
19.908380847484214 3.273949386070936	0.008260381031 
20.493145337630807 3.2974066668748234	0.007851547664 
21.08551858842958 3.356846019984699	0.007550276337 
21.69100398465459 3.290860736108301	0.006994395658 
22.35785673235716 3.24049477943344	0.006482626323 
23.159472638669232 3.0710065580750094	0.005725631744 
23.726591719858032 2.9946379878816964	0.005319534321 
24.451564361845094 2.916703524451619	0.00487841775  
25.1809751677671 2.8018652394269488	0.004418777702 
26.020169986213915 2.618898586472508	0.003868106495 
26.729200913703526 2.4480349403804564	0.00342645996  
27.691818448488775 2.2444456962571	0.002926888316 
28.696894731422063 2.014670813322153	0.002446438404 
29.442483791533576 1.8538307533306602	0.002138558787 
30.259777544541148 1.6855840803721824	0.001840852361 
31.222172550311292 1.4885836090786402	0.001527027976 
32.11323502951654 1.3248586256653678	0.001284699106 
33.110424436559704 1.1636066490314407	0.001061394171 
34.0616178549759 1.0364672401277544	0.0008933569809
34.99799054214534 0.9268618182819733	0.0007567087799
36.009917207016535 0.8365666248981465	0.0006451434444
37.030584014973414 0.7668893671925507	0.0005592572123
38.30964685861331 0.695591293385087	0.0004739557976
39.71232651408854 0.649305834926855	0.0004117168529
40.71261350825475 0.631955452228297	0.0003812663706
42.12660070672689 0.6080239341215004	0.0003426161594
43.5613885185169 0.6023270445221597	0.0003174160878
44.90109277961679 0.5953658762088598	0.0002953045358
46.36533948141356 0.5836442155607582	0.0002714946636
47.788802348445245 0.564211824890448	0.0002470528627
49.233898545538345 0.537311545620399	0.0002216653035
50.96758805325186 0.5055676925503115	0.0001946216497
52.33855824627638 0.4583234003684721	0.0001673125511
53.89103130867642 0.4044556005711391	0.000139263679 
55.21379667994322 0.3505203563158831	0.000114978866 
56.53170792724399 0.3027668355726977	9.473797308e-05
57.65407971631246 0.2688120461079887	8.087022252e-05
59.02942698855915 0.2272447137698809	6.521637488e-05
60.212053657751795 0.19837456538809517	5.471660065e-05
61.394822284783295 0.17111790975536006	4.539750378e-05
62.64748529300446 0.1460595091138733	3.721538798e-05
64.049289740173 0.12257174263197747	2.987870184e-05
65.60461522187671 0.10034108252604025	2.331363521e-05
66.67180850610212 0.08706427589488926	1.958644065e-05
67.63824411229236 0.07667097256117675	1.675893138e-05
68.52873524032994 0.06793301004220503	1.446556579e-05
69.6737268545357 0.05852438693091086	1.205587648e-05
70.52881751390956 0.051500438970622266	1.035327443e-05
71.53198655935803 0.04500624885664928	8.795737194e-06
72.77721989583712 0.037957731003556275	7.166536562e-06
73.99184392649542 0.03177828495402774	5.804472451e-06
74.50937122598785 0.029525582536810955	5.3183471e-06  
75.68757502769192 0.025280712329125363	4.413062974e-06
76.78299414488322 0.021502641336640867	3.647218014e-06
77.89517204103024 0.01862488397381178	3.069534325e-06
